Sample2,,Sample2,,
Wavelength (nm),Intensity (a.u.),Wavelength (nm),Intensity (a.u.),
300,102.2321472,300,31.21353531,
300.9299927,80.04761505,300.9299927,17.09318542,
302.0299988,70.56959534,302.0299988,7.797507763,
302.9599915,77.58872986,302.9599915,4.98188448,
304.0599976,96.28123474,304.0599976,4.51402235,
305,110.802124,305,5.639751434,
305.9299927,130.5653229,305.9299927,5.851170063,
307.0299988,150.0143585,307.0299988,6.051474571,
307.9599915,167.7187805,307.9599915,7.356133461,
309.0599976,186.4478455,309.0599976,7.258180618,
310,197.8691864,310,8.088559151,
310.9299927,215.8348389,310.9299927,8.967545509,
312.0299988,235.5960541,312.0299988,9.936619759,
312.9599915,253.8143921,312.9599915,10.02972698,
314.0599976,269.1842651,314.0599976,10.84273243,
315,286.2722473,315,10.81964111,
315.9299927,297.5301208,315.9299927,11.2591753,
317.0299988,321.2235718,317.0299988,12.57861614,
317.9599915,338.6246033,317.9599915,13.2779007,
319.0599976,356.0577698,319.0599976,14.46439838,
320,365.6769104,320,15.22328281,
321.0700073,389.9432678,321.0700073,17.12198639,
322,408.8673706,322,19.21552086,
323.0700073,422.821106,323.0700073,21.91936874,
324,429.0783691,324,22.91640282,
325.0700073,439.596405,325.0700073,25.79115105,
326,447.7092896,326,27.21353149,
327.0700073,455.2863464,327.0700073,29.38118744,
328,464.4493408,328,31.10476303,
329.0700073,462.6187439,329.0700073,30.39808273,
330,470.7387695,330,29.99446869,
330.9299927,466.944397,330.9299927,27.31788254,
332.0299988,462.2646179,332.0299988,25.28143311,
332.9599915,469.5420227,332.9599915,22.69421005,
334.0599976,475.4701538,334.0599976,21.67389107,
335,461.9129028,335,19.94057083,
335.9299927,472.0913696,335.9299927,18.91124535,
337.0299988,466.5215759,337.0299988,19.04810143,
337.9599915,466.2288208,337.9599915,17.63248634,
339.0599976,466.5461426,339.0599976,18.07737732,
340,461.5309143,340,17.48260307,
341.0700073,457.056366,341.0700073,17.80443573,
342,452.0673218,342,18.35128212,
343.0700073,445.5791931,343.0700073,17.99225616,
344,438.1248169,344,17.66521263,
345.0700073,429.4138794,345.0700073,17.08324623,
346,422.0673828,346,17.17666054,
347.0700073,415.5645752,347.0700073,16.38871574,
348,408.5654602,348,15.83133793,
349.0700073,406.0301208,349.0700073,15.93595219,
350,396.0337219,350,16.40183258,
351.0700073,385.3709717,351.0700073,15.1478014,
352,379.3566589,352,15.47964764,
353.0700073,368.4325256,353.0700073,14.86781406,
354,357.9590454,354,14.20682716,
355.0700073,349.2024536,355.0700073,14.78616333,
356,340.3648682,356,14.68247032,
357.0700073,331.8274231,357.0700073,13.67644882,
358,324.5653076,358,13.8597641,
359.0700073,312.2503662,359.0700073,13.19416046,
360,307.8570557,360,12.97613049,
361.0700073,293.1060486,361.0700073,12.26456451,
362,286.2411194,362,12.2496109,
363.0700073,278.348114,363.0700073,11.59828949,
364,263.2172546,364,11.64198303,
365.0700073,258.1890259,365.0700073,10.4961834,
366,248.3072357,366,10.22579765,
367.0700073,234.4051056,367.0700073,10.09848499,
368,229.1461487,368,9.169083595,
369.0700073,218.2441406,369.0700073,9.555474281,
370,210.2407684,370,9.555844307,
371.0700073,201.8315735,371.0700073,9.095826149,
372,193.9181366,372,8.740469933,
373.0700073,184.322998,373.0700073,7.905352116,
374,178.9185486,374,8.143677711,
375.0700073,172.5814819,375.0700073,7.84842205,
376,165.2878571,376,7.293559551,
377.0700073,154.4376526,377.0700073,6.808345318,
378,149.7367401,378,6.811114788,
379.0700073,146.2619476,379.0700073,7.197359085,
380,142.2348175,380,6.08494854,
381.0700073,133.3679962,381.0700073,6.192554474,
382,125.1761017,382,6.031817913,
383.0700073,117.5108261,383.0700073,5.663843155,
384,116.4775925,384,5.330096245,
385.0700073,106.0990601,385.0700073,5.415690899,
386,105.8325806,386,5.189413548,
387.0700073,100.7886887,387.0700073,5.232129574,
388,96.37371826,388,4.420348644,
389.0700073,88.82144928,389.0700073,4.804643631,
390,85.65287781,390,4.565860748,
391.0700073,83.56184387,391.0700073,4.517523766,
392,78.67944336,392,3.597210407,
393.0700073,75.17920685,393.0700073,3.826305866,
394,71.50437164,394,3.577338696,
395.0700073,67.39909363,395.0700073,3.823839664,
396,64.20924377,396,4.18087244,
397.0700073,61.47085953,397.0700073,3.53853488,
398,59.50170135,398,3.941566229,
399.0700073,57.2653923,399.0700073,3.533033848,
400,52.68927383,400,3.17012167,
401.0700073,49.39032745,401.0700073,3.578038216,
402,49.05272293,402,2.915379763,
403.0700073,48.79412079,403.0700073,3.189832211,
404,45.27035904,404,2.913413286,
405.0700073,42.493927,405.0700073,2.756477833,
406,41.66458893,406,2.630880356,
407.0700073,39.06069946,407.0700073,2.766460419,
408,37.32896805,408,2.547735929,
409.0700073,35.37425613,409.0700073,2.515533447,
410,34.11984634,410,2.474609613,
411.0700073,32.60316086,411.0700073,2.483097792,
412,31.12175179,412,2.36961031,
413.0700073,29.21499252,413.0700073,2.116402149,
414,28.11784744,414,2.011332273,
415.0700073,26.30439949,415.0700073,2.143121004,
416,24.26704216,416,2.417927504,
417.0700073,23.07325172,417.0700073,2.155653,
418,23.99038506,418,1.825306058,
419.0700073,21.36545372,419.0700073,1.65973103,
420,20.72114944,420,1.686300039,
421.0599976,20.3910408,421.0599976,1.8346349,
421.9599915,19.94230652,421.9599915,1.941085458,
423.0299988,18.03442574,423.0299988,1.536520958,
423.9299927,17.74302864,423.9299927,1.530624986,
425,17.70232964,425,1.356053591,
426.0599976,16.58018875,426.0599976,1.709659576,
426.9599915,15.72063732,426.9599915,1.372665167,
428.0299988,15.2012434,428.0299988,1.060314536,
428.9299927,14.27408314,428.9299927,1.275988936,
430,13.43468285,430,1.447936654,
431.0700073,12.59059238,431.0700073,1.254130125,
432,12.99137306,432,1.560808659,
433.0700073,12.13524342,433.0700073,1.224958539,
434,11.87430096,434,1.230722904,
435.0700073,11.09396076,435.0700073,1.266423941,
436,11.33130074,436,1.28917098,
437.0700073,10.02784157,437.0700073,1.029361248,
438,10.99235821,438,1.071093798,
439.0700073,9.69972229,439.0700073,0.8932793736,
440,9.626317024,440,0.7344840169,
441.0599976,9.319582939,441.0599976,1.004843831,
441.9599915,8.970643044,441.9599915,1.038496852,
443.0299988,8.617450714,443.0299988,0.9104106426,
443.9299927,8.355065346,443.9299927,1.059035063,
445,7.846127033,445,0.882879734,
446.0599976,7.636147976,446.0599976,0.9717701077,
446.9599915,6.987362385,446.9599915,1.134849787,
448.0299988,7.435130119,448.0299988,0.8437260985,
448.9299927,6.492713928,448.9299927,0.711794436,
450,6.08376503,450,0.9260649681,

Sample2,
Sample2
Collection Time: 4/9/2025 11:15:00 AM
Operator Name  :
Scan Software Version: 1.2(147)
Parameter List :
Instrument                        Cary Eclipse
Instrument Serial Number          EL00063371
Data mode                         Fluorescence
Scan mode                         Emission
X Mode                            Wavelength (nm)
Start (nm)                        300.00
Stop (nm)                         450.00
Ex. Wavelength (nm)               295.00
Ex. Slit (nm)                     5
Em. Slit (nm)                     5
Scan rate (nm/min)                600.00
Data interval (nm)                1.0000
Averaging Time (s)                0.1000
Excitation filter                 Auto
Emission filter                   Open
PMT voltage (V)                   725
Corrected spectra                 OFF
Multicell holder                  Multicell
Multi zero                       OFF
Method Log     :
Method Name    : Default
Date/Time stamp: 4/9/2025 9:07:59 AM
Method Modifications:
Overlayed Graphs Changed: 4/9/2025 9:11:41 AM, Old:OFF, New:ON
PMT Volts Changed: 4/9/2025 9:11:41 AM, Old:600, New:480
Cell Changer Changed: 4/9/2025 9:11:41 AM, Old:OFF, New:ON
Cell2 Changed: 4/9/2025 9:11:41 AM, Old:OFF, New:ON
Monitoring device: Changed: 4/9/2025 9:11:41 AM, Old:PCB 150, New:Block
User Delta Stop Changed: 4/9/2025 9:11:41 AM, Old: 450.00, New: 526.00
User Delta Increment Changed: 4/9/2025 9:11:41 AM, Old:  10.00, New:   0.15
Emission PMT (V): Changed: 4/9/2025 9:11:41 AM, Old: 600, New: 480
Excitation Wavelength Changed: 4/9/2025 9:11:41 AM, Old: 350.00, New: 526.00
Emission Wavelength Changed: 4/9/2025 9:11:41 AM, Old: 400.00, New: 530.00
Stop Wavelength Changed: 4/9/2025 9:11:41 AM, Old: 600.00, New: 650.00
Scan mode: Changed: 4/9/2025 9:12:29 AM, Old:Emission, New:Excitation
User Delta Stop Changed: 4/9/2025 9:12:29 AM, Old: 526.00, New: 555.00
Excitation Wavelength Changed: 4/9/2025 9:12:29 AM, Old: 526.00, New: 400.00
Emission Wavelength Changed: 4/9/2025 9:12:29 AM, Old: 530.00, New: 555.00
Stop Wavelength Changed: 4/9/2025 9:12:29 AM, Old: 650.00, New: 550.00
Scan mode: Changed: 4/9/2025 9:15:05 AM, Old:Excitation, New:Emission
Excitation Wavelength Changed: 4/9/2025 9:15:05 AM, Old: 400.00, New: 526.00
Emission Wavelength Changed: 4/9/2025 9:15:05 AM, Old: 555.00, New: 530.00
Stop Wavelength Changed: 4/9/2025 9:15:05 AM, Old: 550.00, New: 650.00
Excitation Wavelength Changed: 4/9/2025 9:17:26 AM, Old: 526.00, New: 555.00
Emission Wavelength Changed: 4/9/2025 9:17:26 AM, Old: 530.00, New: 400.00
Stop Wavelength Changed: 4/9/2025 9:17:26 AM, Old: 650.00, New: 550.00
Scan mode: Changed: 4/9/2025 9:17:37 AM, Old:Emission, New:Excitation
Excitation Wavelength Changed: 4/9/2025 9:17:37 AM, Old: 555.00, New: 400.00
Emission Wavelength Changed: 4/9/2025 9:17:37 AM, Old: 400.00, New: 555.00
Scan mode: Changed: 4/9/2025 9:20:27 AM, Old:Excitation, New:Emission
Excitation Wavelength Changed: 4/9/2025 9:20:27 AM, Old: 400.00, New: 450.00
Emission Wavelength Changed: 4/9/2025 9:20:27 AM, Old: 555.00, New: 455.00
Stop Wavelength Changed: 4/9/2025 9:20:27 AM, Old: 550.00, New: 650.00
Excitation Wavelength Changed: 4/9/2025 9:22:42 AM, Old: 450.00, New: 470.00
Emission Wavelength Changed: 4/9/2025 9:22:42 AM, Old: 455.00, New: 475.00
Excitation Wavelength Changed: 4/9/2025 9:23:45 AM, Old: 470.00, New: 490.00
Emission Wavelength Changed: 4/9/2025 9:23:45 AM, Old: 475.00, New: 495.00
Excitation Wavelength Changed: 4/9/2025 9:24:43 AM, Old: 490.00, New: 510.00
Emission Wavelength Changed: 4/9/2025 9:24:43 AM, Old: 495.00, New: 515.00
Excitation Wavelength Changed: 4/9/2025 9:25:49 AM, Old: 510.00, New: 530.00
Emission Wavelength Changed: 4/9/2025 9:25:49 AM, Old: 515.00, New: 535.00
Excitation Wavelength Changed: 4/9/2025 9:27:08 AM, Old: 530.00, New: 540.00
Emission Wavelength Changed: 4/9/2025 9:27:08 AM, Old: 535.00, New: 545.00
Excitation Wavelength Changed: 4/9/2025 9:28:30 AM, Old: 540.00, New: 500.00
Emission Wavelength Changed: 4/9/2025 9:28:30 AM, Old: 545.00, New: 505.00
Excitation Wavelength Changed: 4/9/2025 9:29:20 AM, Old: 500.00, New: 480.00
Emission Wavelength Changed: 4/9/2025 9:29:20 AM, Old: 505.00, New: 485.00
PMT Volts Changed: 4/9/2025 9:49:55 AM, Old:480, New:450
Emission PMT (V): Changed: 4/9/2025 9:49:55 AM, Old: 480, New: 450
Excitation Wavelength Changed: 4/9/2025 9:49:55 AM, Old: 480.00, New: 526.00
Emission Wavelength Changed: 4/9/2025 9:49:55 AM, Old: 485.00, New: 530.00
PMT Volts Changed: 4/9/2025 9:50:43 AM, Old:450, New:500
Emission PMT (V): Changed: 4/9/2025 9:50:43 AM, Old: 450, New: 500
PMT Volts Changed: 4/9/2025 9:52:15 AM, Old:500, New:480
Emission PMT (V): Changed: 4/9/2025 9:52:15 AM, Old: 500, New: 480
PMT Volts Changed: 4/9/2025 9:52:54 AM, Old:480, New:490
Emission PMT (V): Changed: 4/9/2025 9:52:54 AM, Old: 480, New: 490
PMT Volts Changed: 4/9/2025 9:53:33 AM, Old:490, New:495
Emission PMT (V): Changed: 4/9/2025 9:53:33 AM, Old: 490, New: 495
PMT Volts Changed: 4/9/2025 10:43:03 AM, Old:495, New:510
Emission PMT (V): Changed: 4/9/2025 10:43:03 AM, Old: 495, New: 510
PMT Volts Changed: 4/9/2025 10:43:44 AM, Old:510, New:535
Emission PMT (V): Changed: 4/9/2025 10:43:44 AM, Old: 510, New: 535
PMT Volts Changed: 4/9/2025 10:45:01 AM, Old:535, New:560
Emission PMT (V): Changed: 4/9/2025 10:45:01 AM, Old: 535, New: 560
PMT Volts Changed: 4/9/2025 10:46:07 AM, Old:560, New:585
Emission PMT (V): Changed: 4/9/2025 10:46:07 AM, Old: 560, New: 585
PMT Volts Changed: 4/9/2025 10:46:57 AM, Old:585, New:610
Emission PMT (V): Changed: 4/9/2025 10:46:57 AM, Old: 585, New: 610
PMT Volts Changed: 4/9/2025 10:47:36 AM, Old:610, New:635
Emission PMT (V): Changed: 4/9/2025 10:47:36 AM, Old: 610, New: 635
PMT Volts Changed: 4/9/2025 10:48:42 AM, Old:635, New:680
Emission PMT (V): Changed: 4/9/2025 10:48:42 AM, Old: 635, New: 680
Emission Wavelength Changed: 4/9/2025 10:48:42 AM, Old: 530.00, New: 535.00
PMT Volts Changed: 4/9/2025 10:49:28 AM, Old:680, New:730
Emission PMT (V): Changed: 4/9/2025 10:49:28 AM, Old: 680, New: 730
PMT Volts Changed: 4/9/2025 10:50:25 AM, Old:730, New:780
Emission PMT (V): Changed: 4/9/2025 10:50:25 AM, Old: 730, New: 780
PMT Volts Changed: 4/9/2025 10:51:16 AM, Old:780, New:830
Emission PMT (V): Changed: 4/9/2025 10:51:16 AM, Old: 780, New: 830
PMT Volts Changed: 4/9/2025 10:52:08 AM, Old:830, New:880
Emission PMT (V): Changed: 4/9/2025 10:52:08 AM, Old: 830, New: 880
PMT Volts Changed: 4/9/2025 10:52:50 AM, Old:880, New:850
Emission PMT (V): Changed: 4/9/2025 10:52:50 AM, Old: 880, New: 850
PMT Volts Changed: 4/9/2025 10:53:36 AM, Old:850, New:865
Emission PMT (V): Changed: 4/9/2025 10:53:36 AM, Old: 850, New: 865
PMT Volts Changed: 4/9/2025 11:11:15 AM, Old:865, New:500
Emission PMT (V): Changed: 4/9/2025 11:11:15 AM, Old: 865, New: 500
Excitation Wavelength Changed: 4/9/2025 11:11:15 AM, Old: 526.00, New: 295.00
Emission Wavelength Changed: 4/9/2025 11:11:15 AM, Old: 535.00, New: 300.00
Stop Wavelength Changed: 4/9/2025 11:11:15 AM, Old: 650.00, New: 450.00
PMT Volts Changed: 4/9/2025 11:11:55 AM, Old:500, New:850
Emission PMT (V): Changed: 4/9/2025 11:11:55 AM, Old: 500, New: 850
PMT Volts Changed: 4/9/2025 11:12:57 AM, Old:850, New:650
Emission PMT (V): Changed: 4/9/2025 11:12:57 AM, Old: 850, New: 650
PMT Volts Changed: 4/9/2025 11:13:46 AM, Old:650, New:750
Emission PMT (V): Changed: 4/9/2025 11:13:46 AM, Old: 650, New: 750
PMT Volts Changed: 4/9/2025 11:14:35 AM, Old:750, New:725
Emission PMT (V): Changed: 4/9/2025 11:14:35 AM, Old: 750, New: 725
End Method Modifications

Sample2,
Sample2
Collection Time: 4/9/2025 11:17:16 AM
Operator Name  :
Scan Software Version: 1.2(147)
Parameter List :
Instrument                        Cary Eclipse
Instrument Serial Number          EL00063371
Data mode                         Fluorescence
Scan mode                         Emission
X Mode                            Wavelength (nm)
Start (nm)                        300.00
Stop (nm)                         450.00
Ex. Wavelength (nm)               295.00
Ex. Slit (nm)                     5
Em. Slit (nm)                     5
Scan rate (nm/min)                600.00
Data interval (nm)                1.0000
Averaging Time (s)                0.1000
Excitation filter                 Auto
Emission filter                   Open
PMT voltage (V)                   725
Corrected spectra                 OFF
Multicell holder                  Multicell
Multi zero                       OFF
Method Log     :
Method Name    : Default
Date/Time stamp: 4/9/2025 9:07:59 AM
Method Modifications:
Overlayed Graphs Changed: 4/9/2025 9:11:41 AM, Old:OFF, New:ON
PMT Volts Changed: 4/9/2025 9:11:41 AM, Old:600, New:480
Cell Changer Changed: 4/9/2025 9:11:41 AM, Old:OFF, New:ON
Cell2 Changed: 4/9/2025 9:11:41 AM, Old:OFF, New:ON
Monitoring device: Changed: 4/9/2025 9:11:41 AM, Old:PCB 150, New:Block
User Delta Stop Changed: 4/9/2025 9:11:41 AM, Old: 450.00, New: 526.00
User Delta Increment Changed: 4/9/2025 9:11:41 AM, Old:  10.00, New:   0.15
Emission PMT (V): Changed: 4/9/2025 9:11:41 AM, Old: 600, New: 480
Excitation Wavelength Changed: 4/9/2025 9:11:41 AM, Old: 350.00, New: 526.00
Emission Wavelength Changed: 4/9/2025 9:11:41 AM, Old: 400.00, New: 530.00
Stop Wavelength Changed: 4/9/2025 9:11:41 AM, Old: 600.00, New: 650.00
Scan mode: Changed: 4/9/2025 9:12:29 AM, Old:Emission, New:Excitation
User Delta Stop Changed: 4/9/2025 9:12:29 AM, Old: 526.00, New: 555.00
Excitation Wavelength Changed: 4/9/2025 9:12:29 AM, Old: 526.00, New: 400.00
Emission Wavelength Changed: 4/9/2025 9:12:29 AM, Old: 530.00, New: 555.00
Stop Wavelength Changed: 4/9/2025 9:12:29 AM, Old: 650.00, New: 550.00
Scan mode: Changed: 4/9/2025 9:15:05 AM, Old:Excitation, New:Emission
Excitation Wavelength Changed: 4/9/2025 9:15:05 AM, Old: 400.00, New: 526.00
Emission Wavelength Changed: 4/9/2025 9:15:05 AM, Old: 555.00, New: 530.00
Stop Wavelength Changed: 4/9/2025 9:15:05 AM, Old: 550.00, New: 650.00
Excitation Wavelength Changed: 4/9/2025 9:17:26 AM, Old: 526.00, New: 555.00
Emission Wavelength Changed: 4/9/2025 9:17:26 AM, Old: 530.00, New: 400.00
Stop Wavelength Changed: 4/9/2025 9:17:26 AM, Old: 650.00, New: 550.00
Scan mode: Changed: 4/9/2025 9:17:37 AM, Old:Emission, New:Excitation
Excitation Wavelength Changed: 4/9/2025 9:17:37 AM, Old: 555.00, New: 400.00
Emission Wavelength Changed: 4/9/2025 9:17:37 AM, Old: 400.00, New: 555.00
Scan mode: Changed: 4/9/2025 9:20:27 AM, Old:Excitation, New:Emission
Excitation Wavelength Changed: 4/9/2025 9:20:27 AM, Old: 400.00, New: 450.00
Emission Wavelength Changed: 4/9/2025 9:20:27 AM, Old: 555.00, New: 455.00
Stop Wavelength Changed: 4/9/2025 9:20:27 AM, Old: 550.00, New: 650.00
Excitation Wavelength Changed: 4/9/2025 9:22:42 AM, Old: 450.00, New: 470.00
Emission Wavelength Changed: 4/9/2025 9:22:42 AM, Old: 455.00, New: 475.00
Excitation Wavelength Changed: 4/9/2025 9:23:45 AM, Old: 470.00, New: 490.00
Emission Wavelength Changed: 4/9/2025 9:23:45 AM, Old: 475.00, New: 495.00
Excitation Wavelength Changed: 4/9/2025 9:24:43 AM, Old: 490.00, New: 510.00
Emission Wavelength Changed: 4/9/2025 9:24:43 AM, Old: 495.00, New: 515.00
Excitation Wavelength Changed: 4/9/2025 9:25:49 AM, Old: 510.00, New: 530.00
Emission Wavelength Changed: 4/9/2025 9:25:49 AM, Old: 515.00, New: 535.00
Excitation Wavelength Changed: 4/9/2025 9:27:08 AM, Old: 530.00, New: 540.00
Emission Wavelength Changed: 4/9/2025 9:27:08 AM, Old: 535.00, New: 545.00
Excitation Wavelength Changed: 4/9/2025 9:28:30 AM, Old: 540.00, New: 500.00
Emission Wavelength Changed: 4/9/2025 9:28:30 AM, Old: 545.00, New: 505.00
Excitation Wavelength Changed: 4/9/2025 9:29:20 AM, Old: 500.00, New: 480.00
Emission Wavelength Changed: 4/9/2025 9:29:20 AM, Old: 505.00, New: 485.00
PMT Volts Changed: 4/9/2025 9:49:55 AM, Old:480, New:450
Emission PMT (V): Changed: 4/9/2025 9:49:55 AM, Old: 480, New: 450
Excitation Wavelength Changed: 4/9/2025 9:49:55 AM, Old: 480.00, New: 526.00
Emission Wavelength Changed: 4/9/2025 9:49:55 AM, Old: 485.00, New: 530.00
PMT Volts Changed: 4/9/2025 9:50:43 AM, Old:450, New:500
Emission PMT (V): Changed: 4/9/2025 9:50:43 AM, Old: 450, New: 500
PMT Volts Changed: 4/9/2025 9:52:15 AM, Old:500, New:480
Emission PMT (V): Changed: 4/9/2025 9:52:15 AM, Old: 500, New: 480
PMT Volts Changed: 4/9/2025 9:52:54 AM, Old:480, New:490
Emission PMT (V): Changed: 4/9/2025 9:52:54 AM, Old: 480, New: 490
PMT Volts Changed: 4/9/2025 9:53:33 AM, Old:490, New:495
Emission PMT (V): Changed: 4/9/2025 9:53:33 AM, Old: 490, New: 495
PMT Volts Changed: 4/9/2025 10:43:03 AM, Old:495, New:510
Emission PMT (V): Changed: 4/9/2025 10:43:03 AM, Old: 495, New: 510
PMT Volts Changed: 4/9/2025 10:43:44 AM, Old:510, New:535
Emission PMT (V): Changed: 4/9/2025 10:43:44 AM, Old: 510, New: 535
PMT Volts Changed: 4/9/2025 10:45:01 AM, Old:535, New:560
Emission PMT (V): Changed: 4/9/2025 10:45:01 AM, Old: 535, New: 560
PMT Volts Changed: 4/9/2025 10:46:07 AM, Old:560, New:585
Emission PMT (V): Changed: 4/9/2025 10:46:07 AM, Old: 560, New: 585
PMT Volts Changed: 4/9/2025 10:46:57 AM, Old:585, New:610
Emission PMT (V): Changed: 4/9/2025 10:46:57 AM, Old: 585, New: 610
PMT Volts Changed: 4/9/2025 10:47:36 AM, Old:610, New:635
Emission PMT (V): Changed: 4/9/2025 10:47:36 AM, Old: 610, New: 635
PMT Volts Changed: 4/9/2025 10:48:42 AM, Old:635, New:680
Emission PMT (V): Changed: 4/9/2025 10:48:42 AM, Old: 635, New: 680
Emission Wavelength Changed: 4/9/2025 10:48:42 AM, Old: 530.00, New: 535.00
PMT Volts Changed: 4/9/2025 10:49:28 AM, Old:680, New:730
Emission PMT (V): Changed: 4/9/2025 10:49:28 AM, Old: 680, New: 730
PMT Volts Changed: 4/9/2025 10:50:25 AM, Old:730, New:780
Emission PMT (V): Changed: 4/9/2025 10:50:25 AM, Old: 730, New: 780
PMT Volts Changed: 4/9/2025 10:51:16 AM, Old:780, New:830
Emission PMT (V): Changed: 4/9/2025 10:51:16 AM, Old: 780, New: 830
PMT Volts Changed: 4/9/2025 10:52:08 AM, Old:830, New:880
Emission PMT (V): Changed: 4/9/2025 10:52:08 AM, Old: 830, New: 880
PMT Volts Changed: 4/9/2025 10:52:50 AM, Old:880, New:850
Emission PMT (V): Changed: 4/9/2025 10:52:50 AM, Old: 880, New: 850
PMT Volts Changed: 4/9/2025 10:53:36 AM, Old:850, New:865
Emission PMT (V): Changed: 4/9/2025 10:53:36 AM, Old: 850, New: 865
PMT Volts Changed: 4/9/2025 11:11:15 AM, Old:865, New:500
Emission PMT (V): Changed: 4/9/2025 11:11:15 AM, Old: 865, New: 500
Excitation Wavelength Changed: 4/9/2025 11:11:15 AM, Old: 526.00, New: 295.00
Emission Wavelength Changed: 4/9/2025 11:11:15 AM, Old: 535.00, New: 300.00
Stop Wavelength Changed: 4/9/2025 11:11:15 AM, Old: 650.00, New: 450.00
PMT Volts Changed: 4/9/2025 11:11:55 AM, Old:500, New:850
Emission PMT (V): Changed: 4/9/2025 11:11:55 AM, Old: 500, New: 850
PMT Volts Changed: 4/9/2025 11:12:57 AM, Old:850, New:650
Emission PMT (V): Changed: 4/9/2025 11:12:57 AM, Old: 850, New: 650
PMT Volts Changed: 4/9/2025 11:13:46 AM, Old:650, New:750
Emission PMT (V): Changed: 4/9/2025 11:13:46 AM, Old: 650, New: 750
PMT Volts Changed: 4/9/2025 11:14:35 AM, Old:750, New:725
Emission PMT (V): Changed: 4/9/2025 11:14:35 AM, Old: 750, New: 725
End Method Modifications

